Step,Signal
0,0
1,0.0941083
2,0.187381
3,0.278991
4,0.368125
5,0.45399
6,0.535827
7,0.612907
8,0.684547
9,0.750111
10,0.809017
11,0.860742
12,0.904827
13,0.940881
14,0.968583
15,0.987688
16,0.998027
17,0.999507
18,0.992115
19,0.975917
20,0.951057
21,0.917755
22,0.876307
23,0.827081
24,0.770513
25,0.707107
26,0.637424
27,0.562083
28,0.481754
29,0.397148
30,0.309017
31,0.218143
32,0.125333
33,0.0314108
34,-0.0627905
35,-0.156434
36,-0.24869
37,-0.338738
38,-0.425779
39,-0.509041
40,-0.587785
41,-0.661312
42,-0.728969
43,-0.790155
44,-0.844328
45,-0.891007
46,-0.929776
47,-0.960294
48,-0.982287
49,-0.995562
50,-1
51,-0.995562
52,-0.982287
53,-0.960294
54,-0.929776
55,-0.891007
56,-0.844328
57,-0.790155
58,-0.728969
59,-0.661312
60,-0.587785
61,-0.509041
62,-0.425779
63,-0.338738
64,-0.24869
65,-0.156434
66,-0.0627905
67,0.0314108
68,0.125333
69,0.218143
70,0.309017
71,0.397148
72,0.481754
73,0.562083
74,0.637424
75,0.707107
76,0.770513
77,0.827081
78,0.876307
79,0.917755
80,0.951057
81,0.975917
82,0.992115
83,0.999507
84,0.998027
85,0.987688
86,0.968583
87,0.940881
88,0.904827
89,0.860742
90,0.809017
91,0.750111
92,0.684547
93,0.612907
94,0.535827
95,0.45399
96,0.368125
97,0.278991
98,0.187381
99,0.0941083
100,3.67394e-16
101,-0.0941083
102,-0.187381
103,-0.278991
104,-0.368125
105,-0.45399
106,-0.535827
107,-0.612907
108,-0.684547
109,-0.750111
110,-0.809017
111,-0.860742
112,-0.904827
113,-0.940881
114,-0.968583
115,-0.987688
116,-0.998027
117,-0.999507
118,-0.992115
119,-0.975917
120,-0.951057
121,-0.917755
122,-0.876307
123,-0.827081
124,-0.770513
125,-0.707107
126,-0.637424
127,-0.562083
128,-0.481754
129,-0.397148
130,-0.309017
131,-0.218143
132,-0.125333
133,-0.0314108
134,0.0627905
135,0.156434
136,0.24869
137,0.338738
138,0.425779
139,0.509041
140,0.587785
141,0.661312
142,0.728969
143,0.790155
144,0.844328
145,0.891007
146,0.929776
147,0.960294
148,0.982287
149,0.995562
150,1
151,0.995562
152,0.982287
153,0.960294
154,0.929776
155,0.891007
156,0.844328
157,0.790155
158,0.728969
159,0.661312
160,0.587785
161,0.509041
162,0.425779
163,0.338738
164,0.24869
165,0.156434
166,0.0627905
167,-0.0314108
168,-0.125333
169,-0.218143
170,-0.309017
171,-0.397148
172,-0.481754
173,-0.562083
174,-0.637424
175,-0.707107
176,-0.770513
177,-0.827081
178,-0.876307
179,-0.917755
180,-0.951057
181,-0.975917
182,-0.992115
183,-0.999507
184,-0.998027
185,-0.987688
186,-0.968583
187,-0.940881
188,-0.904827
189,-0.860742
190,-0.809017
191,-0.750111
192,-0.684547
193,-0.612907
194,-0.535827
195,-0.45399
196,-0.368125
197,-0.278991
198,-0.187381
199,-0.0941083
200,-7.34788e-16
201,0.0941083
202,0.187381
203,0.278991
204,0.368125
205,0.45399
206,0.535827
207,0.612907
208,0.684547
209,0.750111
210,0.809017
211,0.860742
212,0.904827
213,0.940881
214,0.968583
215,0.987688
216,0.998027
217,0.999507
218,0.992115
219,0.975917
220,0.951057
221,0.917755
222,0.876307
223,0.827081
224,0.770513
225,0.707107
226,0.637424
227,0.562083
228,0.481754
229,0.397148
230,0.309017
231,0.218143
232,0.125333
233,0.0314108
234,-0.0627905
235,-0.156434
236,-0.24869
237,-0.338738
238,-0.425779
239,-0.509041
240,-0.587785
241,-0.661312
242,-0.728969
243,-0.790155
244,-0.844328
245,-0.891007
246,-0.929776
247,-0.960294
248,-0.982287
249,-0.995562
250,-1
251,-0.995562
252,-0.982287
253,-0.960294
254,-0.929776
255,-0.891007
256,-0.844328
257,-0.790155
258,-0.728969
259,-0.661312
260,-0.587785
261,-0.509041
262,-0.425779
263,-0.338738
264,-0.24869
265,-0.156434
266,-0.0627905
267,0.0314108
268,0.125333
269,0.218143
270,0.309017
271,0.397148
272,0.481754
273,0.562083
274,0.637424
275,0.707107
276,0.770513
277,0.827081
278,0.876307
279,0.917755
280,0.951057
281,0.975917
282,0.992115
283,0.999507
284,0.998027
285,0.987688
286,0.968583
287,0.940881
288,0.904827
289,0.860742
290,0.809017
291,0.750111
292,0.684547
293,0.612907
294,0.535827
295,0.45399
296,0.368125
297,0.278991
298,0.187381
299,0.0941083
300,4.6549e-15
301,-0.0941083
302,-0.187381
303,-0.278991
304,-0.368125
305,-0.45399
306,-0.535827
307,-0.612907
308,-0.684547
309,-0.750111
310,-0.809017
311,-0.860742
312,-0.904827
313,-0.940881
314,-0.968583
315,-0.987688
316,-0.998027
317,-0.999507
318,-0.992115
319,-0.975917
320,-0.951057
321,-0.917755
322,-0.876307
323,-0.827081
324,-0.770513
325,-0.707107
326,-0.637424
327,-0.562083
328,-0.481754
329,-0.397148
330,-0.309017
331,-0.218143
332,-0.125333
333,-0.0314108
334,0.0627905
335,0.156434
336,0.24869
337,0.338738
338,0.425779
339,0.509041
340,0.587785
341,0.661312
342,0.728969
343,0.790155
344,0.844328
345,0.891007
346,0.929776
347,0.960294
348,0.982287
349,0.995562
350,1
351,0.995562
352,0.982287
353,0.960294
354,0.929776
355,0.891007
356,0.844328
357,0.790155
358,0.728969
359,0.661312
360,0.587785
361,0.509041
362,0.425779
363,0.338738
364,0.24869
365,0.156434
366,0.0627905
367,-0.0314108
368,-0.125333
369,-0.218143
370,-0.309017
371,-0.397148
372,-0.481754
373,-0.562083
374,-0.637424
375,-0.707107
376,-0.770513
377,-0.827081
378,-0.876307
379,-0.917755
380,-0.951057
381,-0.975917
382,-0.992115
383,-0.999507
384,-0.998027
385,-0.987688
386,-0.968583
387,-0.940881
388,-0.904827
389,-0.860742
390,-0.809017
391,-0.750111
392,-0.684547
393,-0.612907
394,-0.535827
395,-0.45399
396,-0.368125
397,-0.278991
398,-0.187381
399,-0.0941083
400,-1.46958e-15
401,0.0941083
402,0.187381
403,0.278991
404,0.368125
405,0.45399
406,0.535827
407,0.612907
408,0.684547
409,0.750111
410,0.809017
411,0.860742
412,0.904827
413,0.940881
414,0.968583
415,0.987688
416,0.998027
417,0.999507
418,0.992115
419,0.975917
420,0.951057
421,0.917755
422,0.876307
423,0.827081
424,0.770513
425,0.707107
426,0.637424
427,0.562083
428,0.481754
429,0.397148
430,0.309017
431,0.218143
432,0.125333
433,0.0314108
434,-0.0627905
435,-0.156434
436,-0.24869
437,-0.338738
438,-0.425779
439,-0.509041
440,-0.587785
441,-0.661312
442,-0.728969
443,-0.790155
444,-0.844328
445,-0.891007
446,-0.929776
447,-0.960294
448,-0.982287
449,-0.995562
450,-1
451,-0.995562
452,-0.982287
453,-0.960294
454,-0.929776
455,-0.891007
456,-0.844328
457,-0.790155
458,-0.728969
459,-0.661312
460,-0.587785
461,-0.509041
462,-0.425779
463,-0.338738
464,-0.24869
465,-0.156434
466,-0.0627905
467,0.0314108
468,0.125333
469,0.218143
470,0.309017
471,0.397148
472,0.481754
473,0.562083
474,0.637424
475,0.707107
476,0.770513
477,0.827081
478,0.876307
479,0.917755
480,0.951057
481,0.975917
482,0.992115
483,0.999507
484,0.998027
485,0.987688
486,0.968583
487,0.940881
488,0.904827
489,0.860742
490,0.809017
491,0.750111
492,0.684547
493,0.612907
494,0.535827
495,0.45399
496,0.368125
497,0.278991
498,0.187381
499,0.0941083
500,5.38968e-15
501,-0.0941083
502,-0.187381
503,-0.278991
504,-0.368125
505,-0.45399
506,-0.535827
507,-0.612907
508,-0.684547
509,-0.750111
510,-0.809017
511,-0.860742
512,-0.904827
513,-0.940881
514,-0.968583
515,-0.987688
516,-0.998027
517,-0.999507
518,-0.992115
519,-0.975917
520,-0.951057
521,-0.917755
522,-0.876307
523,-0.827081
524,-0.770513
525,-0.707107
526,-0.637424
527,-0.562083
528,-0.481754
529,-0.397148
530,-0.309017
531,-0.218143
532,-0.125333
533,-0.0314108
534,0.0627905
535,0.156434
536,0.24869
537,0.338738
538,0.425779
539,0.509041
540,0.587785
541,0.661312
542,0.728969
543,0.790155
544,0.844328
545,0.891007
546,0.929776
547,0.960294
548,0.982287
549,0.995562
550,1
551,0.995562
552,0.982287
553,0.960294
554,0.929776
555,0.891007
556,0.844328
557,0.790155
558,0.728969
559,0.661312
560,0.587785
561,0.509041
562,0.425779
563,0.338738
564,0.24869
565,0.156434
566,0.0627905
567,-0.0314108
568,-0.125333
569,-0.218143
570,-0.309017
571,-0.397148
572,-0.481754
573,-0.562083
574,-0.637424
575,-0.707107
576,-0.770513
577,-0.827081
578,-0.876307
579,-0.917755
580,-0.951057
581,-0.975917
582,-0.992115
583,-0.999507
584,-0.998027
585,-0.987688
586,-0.968583
587,-0.940881
588,-0.904827
589,-0.860742
590,-0.809017
591,-0.750111
592,-0.684547
593,-0.612907
594,-0.535827
595,-0.45399
596,-0.368125
597,-0.278991
598,-0.187381
599,-0.0941083
600,-9.30979e-15
601,0.0941083
602,0.187381
603,0.278991
604,0.368125
605,0.45399
606,0.535827
607,0.612907
608,0.684547
609,0.750111
610,0.809017
611,0.860742
612,0.904827
613,0.940881
614,0.968583
615,0.987688
616,0.998027
617,0.999507
618,0.992115
619,0.975917
620,0.951057
621,0.917755
622,0.876307
623,0.827081
624,0.770513
625,0.707107
626,0.637424
627,0.562083
628,0.481754
629,0.397148
630,0.309017
631,0.218143
632,0.125333
633,0.0314108
634,-0.0627905
635,-0.156434
636,-0.24869
637,-0.338738
638,-0.425779
639,-0.509041
640,-0.587785
641,-0.661312
642,-0.728969
643,-0.790155
644,-0.844328
645,-0.891007
646,-0.929776
647,-0.960294
648,-0.982287
649,-0.995562
650,-1
651,-0.995562
652,-0.982287
653,-0.960294
654,-0.929776
655,-0.891007
656,-0.844328
657,-0.790155
658,-0.728969
659,-0.661312
660,-0.587785
661,-0.509041
662,-0.425779
663,-0.338738
664,-0.24869
665,-0.156434
666,-0.0627905
667,0.0314108
668,0.125333
669,0.218143
670,0.309017
671,0.397148
672,0.481754
673,0.562083
674,0.637424
675,0.707107
676,0.770513
677,0.827081
678,0.876307
679,0.917755
680,0.951057
681,0.975917
682,0.992115
683,0.999507
684,0.998027
685,0.987688
686,0.968583
687,0.940881
688,0.904827
689,0.860742
690,0.809017
691,0.750111
692,0.684547
693,0.612907
694,0.535827
695,0.45399
696,0.368125
697,0.278991
698,0.187381
699,0.0941083
700,-9.80955e-16
701,-0.0941083
702,-0.187381
703,-0.278991
704,-0.368125
705,-0.45399
706,-0.535827
707,-0.612907
708,-0.684547
709,-0.750111
710,-0.809017
711,-0.860742
712,-0.904827
713,-0.940881
714,-0.968583
715,-0.987688
716,-0.998027
717,-0.999507
718,-0.992115
719,-0.975917
720,-0.951057
721,-0.917755
722,-0.876307
723,-0.827081
724,-0.770513
725,-0.707107
726,-0.637424
727,-0.562083
728,-0.481754
729,-0.397148
730,-0.309017
731,-0.218143
732,-0.125333
733,-0.0314108
734,0.0627905
735,0.156434
736,0.24869
737,0.338738
738,0.425779
739,0.509041
740,0.587785
741,0.661312
742,0.728969
743,0.790155
744,0.844328
745,0.891007
746,0.929776
747,0.960294
748,0.982287
749,0.995562
750,1
751,0.995562
752,0.982287
753,0.960294
754,0.929776
755,0.891007
756,0.844328
757,0.790155
758,0.728969
759,0.661312
760,0.587785
761,0.509041
762,0.425779
763,0.338738
764,0.24869
765,0.156434
766,0.0627905
767,-0.0314108
768,-0.125333
769,-0.218143
770,-0.309017
771,-0.397148
772,-0.481754
773,-0.562083
774,-0.637424
775,-0.707107
776,-0.770513
777,-0.827081
778,-0.876307
779,-0.917755
780,-0.951057
781,-0.975917
782,-0.992115
783,-0.999507
784,-0.998027
785,-0.987688
786,-0.968583
787,-0.940881
788,-0.904827
789,-0.860742
790,-0.809017
791,-0.750111
792,-0.684547
793,-0.612907
794,-0.535827
795,-0.45399
796,-0.368125
797,-0.278991
798,-0.187381
799,-0.0941083
800,-2.93915e-15
801,0.0941083
802,0.187381
803,0.278991
804,0.368125
805,0.45399
806,0.535827
807,0.612907
808,0.684547
809,0.750111
810,0.809017
811,0.860742
812,0.904827
813,0.940881
814,0.968583
815,0.987688
816,0.998027
817,0.999507
818,0.992115
819,0.975917
820,0.951057
821,0.917755
822,0.876307
823,0.827081
824,0.770513
825,0.707107
826,0.637424
827,0.562083
828,0.481754
829,0.397148
830,0.309017
831,0.218143
832,0.125333
833,0.0314108
834,-0.0627905
835,-0.156434
836,-0.24869
837,-0.338738
838,-0.425779
839,-0.509041
840,-0.587785
841,-0.661312
842,-0.728969
843,-0.790155
844,-0.844328
845,-0.891007
846,-0.929776
847,-0.960294
848,-0.982287
849,-0.995562
850,-1
851,-0.995562
852,-0.982287
853,-0.960294
854,-0.929776
855,-0.891007
856,-0.844328
857,-0.790155
858,-0.728969
859,-0.661312
860,-0.587785
861,-0.509041
862,-0.425779
863,-0.338738
864,-0.24869
865,-0.156434
866,-0.0627905
867,0.0314108
868,0.125333
869,0.218143
870,0.309017
871,0.397148
872,0.481754
873,0.562083
874,0.637424
875,0.707107
876,0.770513
877,0.827081
878,0.876307
879,0.917755
880,0.951057
881,0.975917
882,0.992115
883,0.999507
884,0.998027
885,0.987688
886,0.968583
887,0.940881
888,0.904827
889,0.860742
890,0.809017
891,0.750111
892,0.684547
893,0.612907
894,0.535827
895,0.45399
896,0.368125
897,0.278991
898,0.187381
899,0.0941083
900,6.85926e-15
901,-0.0941083
902,-0.187381
903,-0.278991
904,-0.368125
905,-0.45399
906,-0.535827
907,-0.612907
908,-0.684547
909,-0.750111
910,-0.809017
911,-0.860742
912,-0.904827
913,-0.940881
914,-0.968583
915,-0.987688
916,-0.998027
917,-0.999507
918,-0.992115
919,-0.975917
920,-0.951057
921,-0.917755
922,-0.876307
923,-0.827081
924,-0.770513
925,-0.707107
926,-0.637424
927,-0.562083
928,-0.481754
929,-0.397148
930,-0.309017
931,-0.218143
932,-0.125333
933,-0.0314108
934,0.0627905
935,0.156434
936,0.24869
937,0.338738
938,0.425779
939,0.509041
940,0.587785
941,0.661312
942,0.728969
943,0.790155
944,0.844328
945,0.891007
946,0.929776
947,0.960294
948,0.982287
949,0.995562
950,1
951,0.995562
952,0.982287
953,0.960294
954,0.929776
955,0.891007
956,0.844328
957,0.790155
958,0.728969
959,0.661312
960,0.587785
961,0.509041
962,0.425779
963,0.338738
964,0.24869
965,0.156434
966,0.0627905
967,-0.0314108
968,-0.125333
969,-0.218143
970,-0.309017
971,-0.397148
972,-0.481754
973,-0.562083
974,-0.637424
975,-0.707107
976,-0.770513
977,-0.827081
978,-0.876307
979,-0.917755
980,-0.951057
981,-0.975917
982,-0.992115
983,-0.999507
984,-0.998027
985,-0.987688
986,-0.968583
987,-0.940881
988,-0.904827
989,-0.860742
990,-0.809017
991,-0.750111
992,-0.684547
993,-0.612907
994,-0.535827
995,-0.45399
996,-0.368125
997,-0.278991
998,-0.187381
999,-0.0941083
